source program: DIGISIM WINDOWS
program version: 3.05
file type: CV

experimental parameters:
Estart (V): 1.000
Eswitch (V): -0.800
Eend (V): 1.000
v (V/s): 5.000e-002
temperature (K): 298.2
Ru (Ohms): 0
Cdl (F): 0
cycles: 1

experimental CV curve:
number of E(V), I(A) couples: 3600
1.000, +2.350e-006
0.999, +1.902e-006
0.998, +1.782e-006
0.997, +1.750e-006
0.996, +1.712e-006
0.995, +1.680e-006
0.994, +1.648e-006
0.993, +1.624e-006
0.992, +1.597e-006
0.991, +1.570e-006
0.990, +1.549e-006
0.989, +1.519e-006
0.988, +1.501e-006
0.987, +1.479e-006
0.986, +1.457e-006
0.985, +1.439e-006
0.984, +1.414e-006
0.983, +1.393e-006
0.982, +1.372e-006
0.981, +1.348e-006
0.980, +1.336e-006
0.979, +1.319e-006
0.978, +1.298e-006
0.977, +1.282e-006
0.976, +1.264e-006
0.975, +1.242e-006
0.974, +1.230e-006
0.973, +1.206e-006
0.972, +1.190e-006
0.971, +1.179e-006
0.970, +1.159e-006
0.969, +1.143e-006
0.968, +1.131e-006
0.967, +1.115e-006
0.966, +1.104e-006
0.965, +1.086e-006
0.964, +1.071e-006
0.963, +1.060e-006
0.962, +1.044e-006
0.961, +1.031e-006
0.960, +1.022e-006
0.959, +1.001e-006
0.958, +9.915e-007
0.957, +9.766e-007
0.956, +9.621e-007
0.955, +9.524e-007
0.954, +9.395e-007
0.953, +9.287e-007
0.952, +9.130e-007
0.951, +8.998e-007
0.950, +8.836e-007
0.949, +8.746e-007
0.948, +8.634e-007
0.947, +8.426e-007
0.946, +8.396e-007
0.945, +8.292e-007
0.944, +8.206e-007
0.943, +8.062e-007
0.942, +7.918e-007
0.941, +7.870e-007
0.940, +7.729e-007
0.939, +7.648e-007
0.938, +7.523e-007
0.937, +7.410e-007
0.936, +7.288e-007
0.935, +7.194e-007
0.934, +7.161e-007
0.933, +7.027e-007
0.932, +6.889e-007
0.931, +6.782e-007
0.930, +6.707e-007
0.929, +6.636e-007
0.928, +6.558e-007
0.927, +6.455e-007
0.926, +6.337e-007
0.925, +6.221e-007
0.924, +6.079e-007
0.923, +6.021e-007
0.922, +5.815e-007
0.921, +5.646e-007
0.920, +5.711e-007
0.919, +5.608e-007
0.918, +5.560e-007
0.917, +5.508e-007
0.916, +5.390e-007
0.915, +5.365e-007
0.914, +5.250e-007
0.913, +5.188e-007
0.912, +5.048e-007
0.911, +4.981e-007
0.910, +4.930e-007
0.909, +4.857e-007
0.908, +4.759e-007
0.907, +4.708e-007
0.906, +4.609e-007
0.905, +4.519e-007
0.904, +4.461e-007
0.903, +4.391e-007
0.902, +4.354e-007
0.901, +4.201e-007
0.900, +4.117e-007
0.899, +4.047e-007
0.898, +3.958e-007
0.897, +3.922e-007
0.896, +3.757e-007
0.895, +3.736e-007
0.894, +3.693e-007
0.893, +3.599e-007
0.892, +3.560e-007
0.891, +3.540e-007
0.890, +3.440e-007
0.889, +3.349e-007
0.888, +3.310e-007
0.887, +3.244e-007
0.886, +3.153e-007
0.885, +3.085e-007
0.884, +2.984e-007
0.883, +2.981e-007
0.882, +2.904e-007
0.881, +2.830e-007
0.880, +2.722e-007
0.879, +2.662e-007
0.878, +2.616e-007
0.877, +2.551e-007
0.876, +2.493e-007
0.875, +2.439e-007
0.874, +2.303e-007
0.873, +2.279e-007
0.872, +2.240e-007
0.871, +2.139e-007
0.870, +2.037e-007
0.869, +2.015e-007
0.868, +1.963e-007
0.867, +1.905e-007
0.866, +1.836e-007
0.865, +1.826e-007
0.864, +1.764e-007
0.863, +1.725e-007
0.862, +1.644e-007
0.861, +1.543e-007
0.860, +1.491e-007
0.859, +1.473e-007
0.858, +1.407e-007
0.857, +1.382e-007
0.856, +1.289e-007
0.855, +1.202e-007
0.854, +1.146e-007
0.853, +1.130e-007
0.852, +1.035e-007
0.851, +1.065e-007
0.850, +9.918e-008
0.849, +9.017e-008
0.848, +8.547e-008
0.847, +8.135e-008
0.846, +7.381e-008
0.845, +6.059e-008
0.844, +5.618e-008
0.843, +5.775e-008
0.842, +5.589e-008
0.841, +4.492e-008
0.840, +4.453e-008
0.839, +3.307e-008
0.838, +3.571e-008
0.837, +2.768e-008
0.836, +2.425e-008
0.835, +1.759e-008
0.834, +1.211e-008
0.833, +1.073e-008
0.832, +1.034e-008
0.831, +2.703e-009
0.830, -1.312e-009
0.829, -1.091e-008
0.828, -1.630e-008
0.827, -1.375e-008
0.826, -2.169e-008
0.825, -2.453e-008
0.824, -2.981e-008
0.823, -4.294e-008
0.822, -4.588e-008
0.821, -5.166e-008
0.820, -5.567e-008
0.819, -2.688e-008
0.818, -5.930e-008
0.817, -6.831e-008
0.816, -7.565e-008
0.815, -7.663e-008
0.814, -8.241e-008
0.813, -8.447e-008
0.812, -9.279e-008
0.811, -9.279e-008
0.810, -1.057e-007
0.809, -1.097e-007
0.808, -1.068e-007
0.807, -1.125e-007
0.806, -1.123e-007
0.805, -1.187e-007
0.804, -1.280e-007
0.803, -1.291e-007
0.802, -1.330e-007
0.801, -1.371e-007
0.800, -1.392e-007
0.799, -1.423e-007
0.798, -1.512e-007
0.797, -1.563e-007
0.796, -1.592e-007
0.795, -1.614e-007
0.794, -1.729e-007
0.793, -1.762e-007
0.792, -1.772e-007
0.791, -1.830e-007
0.790, -1.867e-007
0.789, -1.854e-007
0.788, -1.897e-007
0.787, -1.918e-007
0.786, -1.974e-007
0.785, -2.012e-007
0.784, -2.080e-007
0.783, -2.101e-007
0.782, -2.145e-007
0.781, -2.134e-007
0.780, -2.212e-007
0.779, -2.250e-007
0.778, -2.341e-007
0.777, -2.344e-007
0.776, -2.347e-007
0.775, -2.377e-007
0.774, -2.405e-007
0.773, -2.486e-007
0.772, -2.510e-007
0.771, -2.572e-007
0.770, -2.657e-007
0.769, -2.641e-007
0.768, -2.697e-007
0.767, -2.734e-007
0.766, -2.697e-007
0.765, -2.817e-007
0.764, -2.837e-007
0.763, -2.836e-007
0.762, -2.867e-007
0.761, -2.863e-007
0.760, -2.929e-007
0.759, -2.984e-007
0.758, -3.011e-007
0.757, -3.073e-007
0.756, -3.096e-007
0.755, -3.015e-007
0.754, -3.142e-007
0.753, -3.187e-007
0.752, -3.237e-007
0.751, -3.255e-007
0.750, -3.273e-007
0.749, -3.288e-007
0.748, -3.349e-007
0.747, -3.358e-007
0.746, -3.405e-007
0.745, -3.465e-007
0.744, -3.465e-007
0.743, -3.545e-007
0.742, -3.668e-007
0.741, -3.552e-007
0.740, -3.596e-007
0.739, -3.642e-007
0.738, -3.695e-007
0.737, -3.695e-007
0.736, -3.667e-007
0.735, -3.734e-007
0.734, -3.763e-007
0.733, -3.846e-007
0.732, -3.875e-007
0.731, -3.820e-007
0.730, -3.853e-007
0.729, -3.870e-007
0.728, -3.977e-007
0.727, -3.999e-007
0.726, -4.048e-007
0.725, -4.067e-007
0.724, -4.068e-007
0.723, -4.111e-007
0.722, -4.181e-007
0.721, -4.188e-007
0.720, -4.248e-007
0.719, -4.269e-007
0.718, -4.237e-007
0.717, -4.500e-007
0.716, -4.434e-007
0.715, -4.359e-007
0.714, -4.386e-007
0.713, -4.427e-007
0.712, -4.362e-007
0.711, -4.451e-007
0.710, -4.432e-007
0.709, -4.494e-007
0.708, -4.542e-007
0.707, -4.586e-007
0.706, -4.615e-007
0.705, -4.626e-007
0.704, -4.600e-007
0.703, -4.674e-007
0.702, -4.693e-007
0.701, -4.735e-007
0.700, -4.789e-007
0.699, -4.784e-007
0.698, -4.820e-007
0.697, -4.825e-007
0.696, -4.846e-007
0.695, -4.906e-007
0.694, -4.943e-007
0.693, -4.945e-007
0.692, -5.003e-007
0.691, -5.070e-007
0.690, -5.013e-007
0.689, -5.022e-007
0.688, -5.105e-007
0.687, -5.082e-007
0.686, -5.095e-007
0.685, -5.117e-007
0.684, -5.172e-007
0.683, -5.172e-007
0.682, -5.247e-007
0.681, -5.237e-007
0.680, -5.254e-007
0.679, -5.315e-007
0.678, -5.248e-007
0.677, -5.310e-007
0.676, -5.376e-007
0.675, -5.399e-007
0.674, -5.455e-007
0.673, -5.419e-007
0.672, -5.406e-007
0.671, -5.491e-007
0.670, -5.487e-007
0.669, -5.526e-007
0.668, -5.544e-007
0.667, -5.562e-007
0.666, -5.686e-007
0.665, -5.742e-007
0.664, -5.636e-007
0.663, -5.715e-007
0.662, -5.738e-007
0.661, -5.717e-007
0.660, -5.768e-007
0.659, -5.716e-007
0.658, -5.809e-007
0.657, -5.842e-007
0.656, -5.843e-007
0.655, -5.898e-007
0.654, -5.861e-007
0.653, -5.871e-007
0.652, -5.911e-007
0.651, -5.920e-007
0.650, -5.959e-007
0.649, -6.011e-007
0.648, -6.046e-007
0.647, -6.044e-007
0.646, -6.057e-007
0.645, -6.060e-007
0.644, -6.123e-007
0.643, -6.111e-007
0.642, -6.166e-007
0.641, -6.164e-007
0.640, -6.298e-007
0.639, -6.226e-007
0.638, -6.219e-007
0.637, -6.284e-007
0.636, -6.267e-007
0.635, -6.269e-007
0.634, -6.329e-007
0.633, -6.350e-007
0.632, -6.377e-007
0.631, -6.408e-007
0.630, -6.430e-007
0.629, -6.433e-007
0.628, -6.435e-007
0.627, -6.389e-007
0.626, -6.472e-007
0.625, -6.541e-007
0.624, -6.580e-007
0.623, -6.620e-007
0.622, -6.567e-007
0.621, -6.577e-007
0.620, -6.631e-007
0.619, -6.617e-007
0.618, -6.670e-007
0.617, -6.696e-007
0.616, -6.722e-007
0.615, -6.769e-007
0.614, -6.983e-007
0.613, -6.791e-007
0.612, -6.817e-007
0.611, -6.809e-007
0.610, -6.805e-007
0.609, -6.832e-007
0.608, -6.823e-007
0.607, -6.882e-007
0.606, -6.883e-007
0.605, -6.939e-007
0.604, -6.934e-007
0.603, -6.969e-007
0.602, -6.968e-007
0.601, -6.956e-007
0.600, -6.977e-007
0.599, -7.041e-007
0.598, -7.041e-007
0.597, -7.158e-007
0.596, -7.086e-007
0.595, -7.082e-007
0.594, -7.123e-007
0.593, -7.138e-007
0.592, -7.178e-007
0.591, -7.202e-007
0.590, -7.202e-007
0.589, -7.325e-007
0.588, -7.379e-007
0.587, -7.250e-007
0.586, -7.287e-007
0.585, -7.311e-007
0.584, -7.297e-007
0.583, -7.278e-007
0.582, -7.277e-007
0.581, -7.346e-007
0.580, -7.371e-007
0.579, -7.409e-007
0.578, -7.431e-007
0.577, -7.459e-007
0.576, -7.380e-007
0.575, -7.465e-007
0.574, -7.475e-007
0.573, -7.537e-007
0.572, -7.532e-007
0.571, -7.538e-007
0.570, -7.547e-007
0.569, -7.522e-007
0.568, -7.564e-007
0.567, -7.638e-007
0.566, -7.611e-007
0.565, -7.658e-007
0.564, -7.655e-007
0.563, -7.732e-007
0.562, -7.679e-007
0.561, -7.728e-007
0.560, -7.749e-007
0.559, -7.782e-007
0.558, -7.769e-007
0.557, -7.766e-007
0.556, -7.797e-007
0.555, -7.827e-007
0.554, -7.860e-007
0.553, -7.837e-007
0.552, -7.874e-007
0.551, -7.914e-007
0.550, -7.818e-007
0.549, -7.916e-007
0.548, -7.941e-007
0.547, -7.940e-007
0.546, -8.021e-007
0.545, -7.994e-007
0.544, -7.965e-007
0.543, -8.014e-007
0.542, -8.036e-007
0.541, -8.054e-007
0.540, -8.096e-007
0.539, -8.103e-007
0.538, -8.182e-007
0.537, -8.176e-007
0.536, -8.139e-007
0.535, -8.183e-007
0.534, -8.208e-007
0.533, -8.208e-007
0.532, -8.220e-007
0.531, -8.210e-007
0.530, -8.271e-007
0.529, -8.279e-007
0.528, -8.250e-007
0.527, -8.314e-007
0.526, -8.268e-007
0.525, -8.272e-007
0.524, -8.324e-007
0.523, -8.292e-007
0.522, -8.359e-007
0.521, -8.394e-007
0.520, -8.400e-007
0.519, -8.423e-007
0.518, -8.419e-007
0.517, -8.413e-007
0.516, -8.491e-007
0.515, -8.517e-007
0.514, -8.501e-007
0.513, -8.541e-007
0.512, -8.874e-007
0.511, -8.712e-007
0.510, -8.563e-007
0.509, -8.630e-007
0.508, -8.606e-007
0.507, -8.647e-007
0.506, -8.622e-007
0.505, -8.643e-007
0.504, -8.653e-007
0.503, -8.755e-007
0.502, -8.737e-007
0.501, -8.733e-007
0.500, -8.802e-007
0.499, -8.709e-007
0.498, -8.784e-007
0.497, -8.801e-007
0.496, -8.866e-007
0.495, -8.883e-007
0.494, -8.832e-007
0.493, -8.821e-007
0.492, -8.831e-007
0.491, -8.859e-007
0.490, -8.940e-007
0.489, -8.941e-007
0.488, -8.946e-007
0.487, -9.004e-007
0.486, -9.109e-007
0.485, -8.970e-007
0.484, -9.048e-007
0.483, -9.080e-007
0.482, -9.087e-007
0.481, -9.044e-007
0.480, -9.030e-007
0.479, -9.102e-007
0.478, -9.076e-007
0.477, -9.195e-007
0.476, -9.146e-007
0.475, -9.152e-007
0.474, -9.177e-007
0.473, -9.177e-007
0.472, -9.179e-007
0.471, -9.229e-007
0.470, -9.271e-007
0.469, -9.245e-007
0.468, -9.309e-007
0.467, -9.212e-007
0.466, -9.310e-007
0.465, -9.338e-007
0.464, -9.355e-007
0.463, -9.373e-007
0.462, -9.429e-007
0.461, -9.440e-007
0.460, -9.459e-007
0.459, -9.400e-007
0.458, -9.492e-007
0.457, -9.460e-007
0.456, -9.459e-007
0.455, -9.435e-007
0.454, -9.479e-007
0.453, -9.477e-007
0.452, -9.523e-007
0.451, -9.521e-007
0.450, -9.573e-007
0.449, -9.569e-007
0.448, -9.549e-007
0.447, -9.601e-007
0.446, -9.601e-007
0.445, -9.606e-007
0.444, -9.726e-007
0.443, -9.649e-007
0.442, -9.616e-007
0.441, -9.661e-007
0.440, -9.690e-007
0.439, -9.741e-007
0.438, -9.790e-007
0.437, -9.741e-007
0.436, -9.730e-007
0.435, -9.911e-007
0.434, -9.826e-007
0.433, -9.793e-007
0.432, -9.814e-007
0.431, -9.848e-007
0.430, -9.834e-007
0.429, -9.833e-007
0.428, -9.858e-007
0.427, -9.899e-007
0.426, -9.959e-007
0.425, -1.000e-006
0.424, -9.940e-007
0.423, -9.988e-007
0.422, -9.942e-007
0.421, -9.988e-007
0.420, -1.004e-006
0.419, -1.002e-006
0.418, -1.002e-006
0.417, -1.004e-006
0.416, -9.972e-007
0.415, -1.005e-006
0.414, -1.010e-006
0.413, -1.012e-006
0.412, -1.016e-006
0.411, -1.012e-006
0.410, -9.778e-007
0.409, -9.487e-007
0.408, -1.011e-006
0.407, -1.015e-006
0.406, -1.019e-006
0.405, -1.021e-006
0.404, -1.028e-006
0.403, -1.019e-006
0.402, -1.026e-006
0.401, -1.027e-006
0.400, -1.027e-006
0.399, -1.031e-006
0.398, -1.029e-006
0.397, -1.026e-006
0.396, -1.030e-006
0.395, -1.031e-006
0.394, -1.037e-006
0.393, -1.042e-006
0.392, -1.041e-006
0.391, -1.040e-006
0.390, -1.044e-006
0.389, -1.044e-006
0.388, -1.045e-006
0.387, -1.049e-006
0.386, -1.052e-006
0.385, -1.053e-006
0.384, -1.065e-006
0.383, -1.062e-006
0.382, -1.056e-006
0.381, -1.053e-006
0.380, -1.058e-006
0.379, -1.054e-006
0.378, -1.055e-006
0.377, -1.057e-006
0.376, -1.063e-006
0.375, -1.065e-006
0.374, -1.063e-006
0.373, -1.065e-006
0.372, -1.068e-006
0.371, -1.057e-006
0.370, -1.068e-006
0.369, -1.072e-006
0.368, -1.073e-006
0.367, -1.079e-006
0.366, -1.075e-006
0.365, -1.072e-006
0.364, -1.081e-006
0.363, -1.076e-006
0.362, -1.083e-006
0.361, -1.091e-006
0.360, -1.087e-006
0.359, -1.089e-006
0.358, -1.099e-006
0.357, -1.089e-006
0.356, -1.094e-006
0.355, -1.091e-006
0.354, -1.094e-006
0.353, -1.095e-006
0.352, -1.090e-006
0.351, -1.093e-006
0.350, -1.096e-006
0.349, -1.103e-006
0.348, -1.101e-006
0.347, -1.099e-006
0.346, -1.097e-006
0.345, -1.096e-006
0.344, -1.103e-006
0.343, -1.106e-006
0.342, -1.105e-006
0.341, -1.115e-006
0.340, -1.110e-006
0.339, -1.110e-006
0.338, -1.113e-006
0.337, -1.114e-006
0.336, -1.119e-006
0.335, -1.116e-006
0.334, -1.116e-006
0.333, -1.128e-006
0.332, -1.127e-006
0.331, -1.116e-006
0.330, -1.125e-006
0.329, -1.127e-006
0.328, -1.127e-006
0.327, -1.126e-006
0.326, -1.123e-006
0.325, -1.128e-006
0.324, -1.132e-006
0.323, -1.129e-006
0.322, -1.131e-006
0.321, -1.135e-006
0.320, -1.131e-006
0.319, -1.133e-006
0.318, -1.136e-006
0.317, -1.141e-006
0.316, -1.144e-006
0.315, -1.139e-006
0.314, -1.142e-006
0.313, -1.137e-006
0.312, -1.143e-006
0.311, -1.148e-006
0.310, -1.151e-006
0.309, -1.149e-006
0.308, -1.155e-006
0.307, -1.194e-006
0.306, -1.160e-006
0.305, -1.152e-006
0.304, -1.161e-006
0.303, -1.162e-006
0.302, -1.154e-006
0.301, -1.156e-006
0.300, -1.161e-006
0.299, -1.161e-006
0.298, -1.161e-006
0.297, -1.170e-006
0.296, -1.167e-006
0.295, -1.166e-006
0.294, -1.164e-006
0.293, -1.171e-006
0.292, -1.181e-006
0.291, -1.171e-006
0.290, -1.166e-006
0.289, -1.177e-006
0.288, -1.178e-006
0.287, -1.183e-006
0.286, -1.175e-006
0.285, -1.178e-006
0.284, -1.182e-006
0.283, -1.184e-006
0.282, -1.194e-006
0.281, -1.200e-006
0.280, -1.183e-006
0.279, -1.190e-006
0.278, -1.199e-006
0.277, -1.186e-006
0.276, -1.190e-006
0.275, -1.193e-006
0.274, -1.194e-006
0.273, -1.191e-006
0.272, -1.201e-006
0.271, -1.203e-006
0.270, -1.198e-006
0.269, -1.196e-006
0.268, -1.202e-006
0.267, -1.199e-006
0.266, -1.208e-006
0.265, -1.209e-006
0.264, -1.207e-006
0.263, -1.206e-006
0.262, -1.204e-006
0.261, -1.211e-006
0.260, -1.213e-006
0.259, -1.215e-006
0.258, -1.212e-006
0.257, -1.213e-006
0.256, -1.226e-006
0.255, -1.226e-006
0.254, -1.218e-006
0.253, -1.223e-006
0.252, -1.219e-006
0.251, -1.215e-006
0.250, -1.224e-006
0.249, -1.226e-006
0.248, -1.222e-006
0.247, -1.229e-006
0.246, -1.230e-006
0.245, -1.231e-006
0.244, -1.233e-006
0.243, -1.225e-006
0.242, -1.230e-006
0.241, -1.235e-006
0.240, -1.232e-006
0.239, -1.236e-006
0.238, -1.233e-006
0.237, -1.237e-006
0.236, -1.235e-006
0.235, -1.234e-006
0.234, -1.242e-006
0.233, -1.242e-006
0.232, -1.244e-006
0.231, -1.243e-006
0.230, -1.264e-006
0.229, -1.245e-006
0.228, -1.254e-006
0.227, -1.255e-006
0.226, -1.254e-006
0.225, -1.252e-006
0.224, -1.251e-006
0.223, -1.252e-006
0.222, -1.259e-006
0.221, -1.262e-006
0.220, -1.260e-006
0.219, -1.264e-006
0.218, -1.261e-006
0.217, -1.257e-006
0.216, -1.268e-006
0.215, -1.263e-006
0.214, -1.267e-006
0.213, -1.273e-006
0.212, -1.272e-006
0.211, -1.261e-006
0.210, -1.274e-006
0.209, -1.277e-006
0.208, -1.276e-006
0.207, -1.277e-006
0.206, -1.273e-006
0.205, -1.304e-006
0.204, -1.299e-006
0.203, -1.283e-006
0.202, -1.288e-006
0.201, -1.291e-006
0.200, -1.289e-006
0.199, -1.293e-006
0.198, -1.284e-006
0.197, -1.289e-006
0.196, -1.289e-006
0.195, -1.291e-006
0.194, -1.294e-006
0.193, -1.295e-006
0.192, -1.294e-006
0.191, -1.301e-006
0.190, -1.301e-006
0.189, -1.306e-006
0.188, -1.308e-006
0.187, -1.303e-006
0.186, -1.305e-006
0.185, -1.303e-006
0.184, -1.303e-006
0.183, -1.310e-006
0.182, -1.311e-006
0.181, -1.316e-006
0.180, -1.313e-006
0.179, -1.334e-006
0.178, -1.319e-006
0.177, -1.321e-006
0.176, -1.318e-006
0.175, -1.328e-006
0.174, -1.322e-006
0.173, -1.321e-006
0.172, -1.324e-006
0.171, -1.321e-006
0.170, -1.330e-006
0.169, -1.331e-006
0.168, -1.324e-006
0.167, -1.328e-006
0.166, -1.325e-006
0.165, -1.330e-006
0.164, -1.339e-006
0.163, -1.342e-006
0.162, -1.339e-006
0.161, -1.336e-006
0.160, -1.333e-006
0.159, -1.341e-006
0.158, -1.342e-006
0.157, -1.341e-006
0.156, -1.346e-006
0.155, -1.348e-006
0.154, -1.354e-006
0.153, -1.359e-006
0.152, -1.355e-006
0.151, -1.355e-006
0.150, -1.355e-006
0.149, -1.360e-006
0.148, -1.360e-006
0.147, -1.356e-006
0.146, -1.364e-006
0.145, -1.362e-006
0.144, -1.367e-006
0.143, -1.367e-006
0.142, -1.364e-006
0.141, -1.361e-006
0.140, -1.364e-006
0.139, -1.369e-006
0.138, -1.376e-006
0.137, -1.380e-006
0.136, -1.378e-006
0.135, -1.374e-006
0.134, -1.379e-006
0.133, -1.376e-006
0.132, -1.380e-006
0.131, -1.379e-006
0.130, -1.386e-006
0.129, -1.389e-006
0.128, -1.408e-006
0.127, -1.396e-006
0.126, -1.385e-006
0.125, -1.397e-006
0.124, -1.393e-006
0.123, -1.394e-006
0.122, -1.396e-006
0.121, -1.390e-006
0.120, -1.396e-006
0.119, -1.400e-006
0.118, -1.405e-006
0.117, -1.410e-006
0.116, -1.407e-006
0.115, -1.393e-006
0.114, -1.404e-006
0.113, -1.407e-006
0.112, -1.408e-006
0.111, -1.417e-006
0.110, -1.418e-006
0.109, -1.413e-006
0.108, -1.422e-006
0.107, -1.416e-006
0.106, -1.418e-006
0.105, -1.422e-006
0.104, -1.420e-006
0.103, -1.433e-006
0.102, -1.461e-006
0.101, -1.434e-006
0.100, -1.438e-006
0.099, -1.435e-006
0.098, -1.432e-006
0.097, -1.439e-006
0.096, -1.431e-006
0.095, -1.440e-006
0.094, -1.440e-006
0.093, -1.440e-006
0.092, -1.443e-006
0.091, -1.445e-006
0.090, -1.440e-006
0.089, -1.442e-006
0.088, -1.441e-006
0.087, -1.455e-006
0.086, -1.459e-006
0.085, -1.457e-006
0.084, -1.457e-006
0.083, -1.454e-006
0.082, -1.470e-006
0.081, -1.466e-006
0.080, -1.465e-006
0.079, -1.467e-006
0.078, -1.470e-006
0.077, -1.486e-006
0.076, -1.485e-006
0.075, -1.466e-006
0.074, -1.484e-006
0.073, -1.481e-006
0.072, -1.478e-006
0.071, -1.485e-006
0.070, -1.483e-006
0.069, -1.482e-006
0.068, -1.491e-006
0.067, -1.495e-006
0.066, -1.495e-006
0.065, -1.496e-006
0.064, -1.489e-006
0.063, -1.496e-006
0.062, -1.500e-006
0.061, -1.509e-006
0.060, -1.507e-006
0.059, -1.503e-006
0.058, -1.510e-006
0.057, -1.503e-006
0.056, -1.507e-006
0.055, -1.519e-006
0.054, -1.518e-006
0.053, -1.527e-006
0.052, -1.524e-006
0.051, -1.536e-006
0.050, -1.533e-006
0.049, -1.534e-006
0.048, -1.537e-006
0.047, -1.537e-006
0.046, -1.537e-006
0.045, -1.542e-006
0.044, -1.546e-006
0.043, -1.548e-006
0.042, -1.559e-006
0.041, -1.558e-006
0.040, -1.560e-006
0.039, -1.562e-006
0.038, -1.551e-006
0.037, -1.564e-006
0.036, -1.568e-006
0.035, -1.576e-006
0.034, -1.579e-006
0.033, -1.582e-006
0.032, -1.582e-006
0.031, -1.584e-006
0.030, -1.591e-006
0.029, -1.593e-006
0.028, -1.602e-006
0.027, -1.598e-006
0.026, -1.618e-006
0.025, -1.620e-006
0.024, -1.610e-006
0.023, -1.622e-006
0.022, -1.627e-006
0.021, -1.619e-006
0.020, -1.627e-006
0.019, -1.631e-006
0.018, -1.636e-006
0.017, -1.644e-006
0.016, -1.642e-006
0.015, -1.654e-006
0.014, -1.656e-006
0.013, -1.653e-006
0.012, -1.656e-006
0.011, -1.662e-006
0.010, -1.675e-006
0.009, -1.681e-006
0.008, -1.676e-006
0.007, -1.692e-006
0.006, -1.685e-006
0.005, -1.690e-006
0.004, -1.703e-006
0.003, -1.708e-006
0.002, -1.716e-006
0.001, -1.725e-006
0.000, -1.640e-006
-0.001, -1.705e-006
-0.002, -1.728e-006
-0.003, -1.741e-006
-0.004, -1.753e-006
-0.005, -1.751e-006
-0.006, -1.759e-006
-0.007, -1.764e-006
-0.008, -1.774e-006
-0.009, -1.789e-006
-0.010, -1.791e-006
-0.011, -1.799e-006
-0.012, -1.807e-006
-0.013, -1.795e-006
-0.014, -1.820e-006
-0.015, -1.823e-006
-0.016, -1.834e-006
-0.017, -1.849e-006
-0.018, -1.848e-006
-0.019, -1.851e-006
-0.020, -1.863e-006
-0.021, -1.868e-006
-0.022, -1.886e-006
-0.023, -1.892e-006
-0.024, -1.900e-006
-0.025, -1.924e-006
-0.026, -1.938e-006
-0.027, -1.933e-006
-0.028, -1.937e-006
-0.029, -1.954e-006
-0.030, -1.960e-006
-0.031, -1.967e-006
-0.032, -1.966e-006
-0.033, -1.992e-006
-0.034, -2.006e-006
